# distance  frequency (bands are separated by blank lines)
# End points of segments: 
#   0.00000000 0.18270580 0.28819100 0.49916150 
0.000000 0.000000
0.001827 -0.018306
0.003654 -0.036212
0.005481 -0.053307
0.007308 -0.069154
0.009135 -0.083272
0.010962 -0.095105
0.012789 -0.103983
0.014616 -0.109026
0.016443 -0.108974
0.018271 -0.101713
0.020098 -0.082648
0.021925 -0.028858
0.023752 0.090396
0.025579 0.143966
0.027406 0.193371
0.029233 0.242368
0.031060 0.292155
0.032887 0.343236
0.034714 0.395842
0.036541 0.450077
0.038368 0.505975
0.040195 0.563531
0.042022 0.622714
0.043849 0.683479
0.045676 0.745772
0.047503 0.809531
0.049331 0.874688
0.051158 0.941174
0.052985 1.008919
0.054812 1.077849
0.056639 1.147893
0.058466 1.218976
0.060293 1.291028
0.062120 1.363976
0.063947 1.437748
0.065774 1.512275
0.067601 1.587487
0.069428 1.663317
0.071255 1.739697
0.073082 1.816560
0.074909 1.893843
0.076736 1.971482
0.078563 2.049413
0.080391 2.127577
0.082218 2.205911
0.084045 2.284357
0.085872 2.362856
0.087699 2.441352
0.089526 2.519787
0.091353 2.598106
0.093180 2.676254
0.095007 2.754177
0.096834 2.831822
0.098661 2.909135
0.100488 2.986064
0.102315 3.062557
0.104142 3.138562
0.105969 3.214029
0.107796 3.288905
0.109623 3.363141
0.111450 3.436684
0.113278 3.509484
0.115105 3.581489
0.116932 3.652647
0.118759 3.722908
0.120586 3.792217
0.122413 3.860523
0.124240 3.927772
0.126067 3.993909
0.127894 4.058878
0.129721 4.122625
0.131548 4.185091
0.133375 4.246218
0.135202 4.305947
0.137029 4.364217
0.138856 4.420967
0.140683 4.476134
0.142511 4.529653
0.144338 4.581459
0.146165 4.631486
0.147992 4.679666
0.149819 4.725932
0.151646 4.770215
0.153473 4.812446
0.155300 4.852557
0.157127 4.890478
0.158954 4.926143
0.160781 4.959483
0.162608 4.990435
0.164435 5.018935
0.166262 5.044924
0.168089 5.068345
0.169916 5.089145
0.171743 5.107275
0.173570 5.122693
0.175398 5.135360
0.177225 5.145247
0.179052 5.152326
0.180879 5.156582
0.182706 5.158001

0.182706 5.158001
0.183761 5.158012
0.184815 5.158046
0.185870 5.158102
0.186925 5.158182
0.187980 5.158285
0.189035 5.158414
0.190090 5.158569
0.191145 5.158752
0.192199 5.158964
0.193254 5.159207
0.194309 5.159484
0.195364 5.159796
0.196419 5.160145
0.197474 5.160535
0.198529 5.160967
0.199583 5.161445
0.200638 5.161971
0.201693 5.162549
0.202748 5.163181
0.203803 5.163871
0.204858 5.164621
0.205912 5.165436
0.206967 5.166317
0.208022 5.167269
0.209077 5.168295
0.210132 5.169398
0.211187 5.170581
0.212242 5.171847
0.213296 5.173199
0.214351 5.174641
0.215406 5.176175
0.216461 5.177804
0.217516 5.179531
0.218571 5.181357
0.219626 5.183287
0.220681 5.185320
0.221735 5.187460
0.222790 5.189709
0.223845 5.192067
0.224900 5.194537
0.225955 5.197119
0.227010 5.199814
0.228064 5.202622
0.229119 5.205545
0.230174 5.208582
0.231229 5.211732
0.232284 5.214996
0.233339 5.218372
0.234394 5.221859
0.235448 5.225456
0.236503 5.229161
0.237558 5.232972
0.238613 5.236886
0.239668 5.240900
0.240723 5.245012
0.241778 5.249218
0.242832 5.253513
0.243887 5.257895
0.244942 5.262357
0.245997 5.266896
0.247052 5.271506
0.248107 5.276181
0.249162 5.280915
0.250216 5.285703
0.251271 5.290537
0.252326 5.295411
0.253381 5.300317
0.254436 5.305247
0.255491 5.310194
0.256545 5.315149
0.257600 5.320103
0.258655 5.325048
0.259710 5.329973
0.260765 5.334871
0.261820 5.339731
0.262875 5.344542
0.263929 5.349295
0.264984 5.353978
0.266039 5.358581
0.267094 5.363094
0.268149 5.367504
0.269204 5.371800
0.270259 5.375970
0.271313 5.380003
0.272368 5.383887
0.273423 5.387609
0.274478 5.391158
0.275533 5.394521
0.276588 5.397685
0.277643 5.400639
0.278697 5.403370
0.279752 5.405866
0.280807 5.408114
0.281862 5.410101
0.282917 5.411815
0.283972 5.413245
0.285027 5.414378
0.286081 5.415202
0.287136 5.415704
0.288191 5.415875

0.288191 5.415875
0.290301 5.415171
0.292410 5.413002
0.294520 5.409282
0.296630 5.403930
0.298739 5.396871
0.300849 5.388035
0.302959 5.377359
0.305069 5.364785
0.307178 5.350263
0.309288 5.333749
0.311398 5.315206
0.313507 5.294603
0.315617 5.271919
0.317727 5.247134
0.319837 5.220239
0.321946 5.191228
0.324056 5.160102
0.326166 5.126864
0.328275 5.091526
0.330385 5.054102
0.332495 5.014608
0.334605 4.973067
0.336714 4.929502
0.338824 4.883940
0.340934 4.836411
0.343043 4.786945
0.345153 4.735575
0.347263 4.682337
0.349372 4.627266
0.351482 4.570399
0.353592 4.511775
0.355702 4.451433
0.357811 4.389414
0.359921 4.325759
0.362031 4.260510
0.364140 4.193712
0.366250 4.125409
0.368360 4.055645
0.370470 3.984467
0.372579 3.911923
0.374689 3.838061
0.376799 3.762931
0.378908 3.686584
0.381018 3.609072
0.383128 3.530448
0.385237 3.450768
0.387347 3.370087
0.389457 3.288464
0.391566 3.205958
0.393676 3.122629
0.395786 3.038541
0.397896 2.953758
0.400005 2.868345
0.402115 2.782371
0.404225 2.695905
0.406334 2.609020
0.408444 2.521788
0.410554 2.434287
0.412664 2.346594
0.414773 2.258789
0.416883 2.170955
0.418993 2.083177
0.421102 1.995541
0.423212 1.908138
0.425322 1.821061
0.427432 1.734402
0.429541 1.648261
0.431651 1.562735
0.433761 1.477929
0.435870 1.393946
0.437980 1.310892
0.440090 1.228879
0.442200 1.148015
0.444309 1.068413
0.446419 0.990188
0.448529 0.913453
0.450638 0.838321
0.452748 0.764905
0.454858 0.693311
0.456967 0.623641
0.459077 0.555987
0.461187 0.490421
0.463296 0.426988
0.465406 0.365685
0.467516 0.306419
0.469626 0.248924
0.471735 0.192538
0.473845 0.135455
0.475955 0.070254
0.478064 -0.063302
0.480174 -0.096402
0.482284 -0.108157
0.484393 -0.109304
0.486503 -0.103489
0.488613 -0.092668
0.490723 -0.078131
0.492832 -0.060846
0.494942 -0.041608
0.497052 -0.021112
0.499161 -0.000000


0.000000 -0.000000
0.001827 0.075912
0.003654 0.151802
0.005481 0.227647
0.007308 0.303425
0.009135 0.379112
0.010962 0.454688
0.012789 0.530130
0.014616 0.605415
0.016443 0.680523
0.018271 0.755431
0.020098 0.830118
0.021925 0.904563
0.023752 0.978745
0.025579 1.052643
0.027406 1.126238
0.029233 1.199508
0.031060 1.272434
0.032887 1.344996
0.034714 1.417176
0.036541 1.488953
0.038368 1.560310
0.040195 1.631228
0.042022 1.701688
0.043849 1.771673
0.045676 1.841165
0.047503 1.910146
0.049331 1.978599
0.051158 2.046508
0.052985 2.113855
0.054812 2.180623
0.056639 2.246796
0.058466 2.312358
0.060293 2.377293
0.062120 2.441583
0.063947 2.505213
0.065774 2.568168
0.067601 2.630431
0.069428 2.691986
0.071255 2.752818
0.073082 2.812911
0.074909 2.872250
0.076736 2.930818
0.078563 2.988601
0.080391 3.045582
0.082218 3.101747
0.084045 3.157081
0.085872 3.211567
0.087699 3.265192
0.089526 3.317941
0.091353 3.369799
0.093180 3.420751
0.095007 3.470783
0.096834 3.519882
0.098661 3.568034
0.100488 3.615226
0.102315 3.661445
0.104142 3.706679
0.105969 3.750916
0.107796 3.794144
0.109623 3.836353
0.111450 3.877533
0.113278 3.917675
0.115105 3.956769
0.116932 3.994807
0.118759 4.031783
0.120586 4.067689
0.122413 4.102520
0.124240 4.136271
0.126067 4.168938
0.127894 4.200518
0.129721 4.231008
0.131548 4.260408
0.133375 4.288715
0.135202 4.315932
0.137029 4.342059
0.138856 4.367097
0.140683 4.391049
0.142511 4.413919
0.144338 4.435710
0.146165 4.456428
0.147992 4.476077
0.149819 4.494663
0.151646 4.512192
0.153473 4.528670
0.155300 4.544104
0.157127 4.558501
0.158954 4.571867
0.160781 4.584210
0.162608 4.595535
0.164435 4.605851
0.166262 4.615163
0.168089 4.623476
0.169916 4.630798
0.171743 4.637132
0.173570 4.642484
0.175398 4.646857
0.177225 4.650255
0.179052 4.652680
0.180879 4.654134
0.182706 4.654618

0.182706 4.654618
0.183761 4.655073
0.184815 4.656435
0.185870 4.658702
0.186925 4.661869
0.187980 4.665931
0.189035 4.670880
0.190090 4.676706
0.191145 4.683398
0.192199 4.690943
0.193254 4.699327
0.194309 4.708533
0.195364 4.718545
0.196419 4.729342
0.197474 4.740904
0.198529 4.753210
0.199583 4.766235
0.200638 4.779956
0.201693 4.794345
0.202748 4.809375
0.203803 4.825018
0.204858 4.841244
0.205912 4.858021
0.206967 4.875318
0.208022 4.893102
0.209077 4.911337
0.210132 4.929988
0.211187 4.949018
0.212242 4.968391
0.213296 4.988068
0.214351 5.008008
0.215406 5.028171
0.216461 5.048516
0.217516 5.069001
0.218571 5.089581
0.219626 5.110213
0.220681 5.130850
0.221735 5.151448
0.222790 5.171960
0.223845 5.192337
0.224900 5.212532
0.225955 5.232497
0.227010 5.252182
0.228064 5.271538
0.229119 5.290517
0.230174 5.309070
0.231229 5.327149
0.232284 5.344708
0.233339 5.361700
0.234394 5.378084
0.235448 5.393816
0.236503 5.408860
0.237558 5.423180
0.238613 5.436745
0.239668 5.449529
0.240723 5.461509
0.241778 5.472668
0.242832 5.482997
0.243887 5.492488
0.244942 5.501143
0.245997 5.508968
0.247052 5.515974
0.248107 5.522179
0.249162 5.527605
0.250216 5.532280
0.251271 5.536233
0.252326 5.539499
0.253381 5.542117
0.254436 5.544125
0.255491 5.545565
0.256545 5.546480
0.257600 5.546913
0.258655 5.546907
0.259710 5.546506
0.260765 5.545751
0.261820 5.544686
0.262875 5.543349
0.263929 5.541780
0.264984 5.540016
0.266039 5.538093
0.267094 5.536046
0.268149 5.533905
0.269204 5.531702
0.270259 5.529465
0.271313 5.527221
0.272368 5.524993
0.273423 5.522807
0.274478 5.520682
0.275533 5.518638
0.276588 5.516693
0.277643 5.514864
0.278697 5.513165
0.279752 5.511609
0.280807 5.510208
0.281862 5.508973
0.282917 5.507912
0.283972 5.507033
0.285027 5.506342
0.286081 5.505844
0.287136 5.505544
0.288191 5.505444

0.288191 5.505444
0.290301 5.505847
0.292410 5.507054
0.294520 5.509046
0.296630 5.511789
0.298739 5.515233
0.300849 5.519313
0.302959 5.523948
0.305069 5.529043
0.307178 5.534490
0.309288 5.540162
0.311398 5.545921
0.313507 5.551612
0.315617 5.557064
0.317727 5.562090
0.319837 5.566485
0.321946 5.570029
0.324056 5.572482
0.326166 5.573590
0.328275 5.573082
0.330385 5.570675
0.332495 5.566078
0.334605 5.558999
0.336714 5.549152
0.338824 5.536273
0.340934 5.520127
0.343043 5.500526
0.345153 5.477337
0.347263 5.450489
0.349372 5.419979
0.351482 5.385867
0.353592 5.348265
0.355702 5.307331
0.357811 5.263251
0.359921 5.216227
0.362031 5.166468
0.364140 5.114181
0.366250 5.059563
0.368360 5.002798
0.370470 4.944055
0.372579 4.883489
0.374689 4.821237
0.376799 4.757426
0.378908 4.692166
0.381018 4.625557
0.383128 4.557688
0.385237 4.488639
0.387347 4.418482
0.389457 4.347284
0.391566 4.275102
0.393676 4.201991
0.395786 4.128000
0.397896 4.053177
0.400005 3.977562
0.402115 3.901197
0.404225 3.824118
0.406334 3.746362
0.408444 3.667960
0.410554 3.588946
0.412664 3.509349
0.414773 3.429199
0.416883 3.348524
0.418993 3.267350
0.421102 3.185704
0.423212 3.103610
0.425322 3.021093
0.427432 2.938176
0.429541 2.854881
0.431651 2.771231
0.433761 2.687246
0.435870 2.602946
0.437980 2.518352
0.440090 2.433482
0.442200 2.348355
0.444309 2.262987
0.446419 2.177395
0.448529 2.091596
0.450638 2.005604
0.452748 1.919434
0.454858 1.833100
0.456967 1.746616
0.459077 1.659993
0.461187 1.573244
0.463296 1.486379
0.465406 1.399409
0.467516 1.312343
0.469626 1.225192
0.471735 1.137964
0.473845 1.050666
0.475955 0.963307
0.478064 0.875893
0.480174 0.788431
0.482284 0.700926
0.484393 0.613386
0.486503 0.525814
0.488613 0.438217
0.490723 0.350598
0.492832 0.262963
0.494942 0.175315
0.497052 0.087660
0.499161 -0.000000


0.000000 0.000000
0.001827 0.123193
0.003654 0.246345
0.005481 0.369415
0.007308 0.492362
0.009135 0.615145
0.010962 0.737724
0.012789 0.860058
0.014616 0.982105
0.016443 1.103827
0.018271 1.225181
0.020098 1.346128
0.021925 1.466628
0.023752 1.586641
0.025579 1.706127
0.027406 1.825046
0.029233 1.943360
0.031060 2.061028
0.032887 2.178013
0.034714 2.294275
0.036541 2.409775
0.038368 2.524476
0.040195 2.638340
0.042022 2.751328
0.043849 2.863403
0.045676 2.974528
0.047503 3.084665
0.049331 3.193778
0.051158 3.301831
0.052985 3.408787
0.054812 3.514609
0.056639 3.619263
0.058466 3.722712
0.060293 3.824922
0.062120 3.925856
0.063947 4.025482
0.065774 4.123764
0.067601 4.220669
0.069428 4.316162
0.071255 4.410210
0.073082 4.502781
0.074909 4.593842
0.076736 4.683361
0.078563 4.771307
0.080391 4.857648
0.082218 4.942356
0.084045 5.025400
0.085872 5.106752
0.087699 5.186385
0.089526 5.264271
0.091353 5.340386
0.093180 5.414706
0.095007 5.487207
0.096834 5.557870
0.098661 5.626674
0.100488 5.693602
0.102315 5.758638
0.104142 5.821770
0.105969 5.882986
0.107796 5.942278
0.109623 5.999640
0.111450 6.055069
0.113278 6.108564
0.115105 6.160130
0.116932 6.209770
0.118759 6.257496
0.120586 6.303318
0.122413 6.347252
0.124240 6.389318
0.126067 6.429535
0.127894 6.467930
0.129721 6.504529
0.131548 6.539363
0.133375 6.572465
0.135202 6.603869
0.137029 6.633613
0.138856 6.661736
0.140683 6.688277
0.142511 6.713279
0.144338 6.736784
0.146165 6.758835
0.147992 6.779475
0.149819 6.798747
0.151646 6.816695
0.153473 6.833360
0.155300 6.848784
0.157127 6.863007
0.158954 6.876067
0.160781 6.888001
0.162608 6.898845
0.164435 6.908630
0.166262 6.917387
0.168089 6.925145
0.169916 6.931929
0.171743 6.937762
0.173570 6.942663
0.175398 6.946649
0.177225 6.949735
0.179052 6.951932
0.180879 6.953246
0.182706 6.953684

0.182706 6.953684
0.183761 6.953481
0.184815 6.952871
0.185870 6.951856
0.186925 6.950438
0.187980 6.948620
0.189035 6.946406
0.190090 6.943801
0.191145 6.940810
0.192199 6.937440
0.193254 6.933698
0.194309 6.929593
0.195364 6.925133
0.196419 6.920329
0.197474 6.915191
0.198529 6.909731
0.199583 6.903961
0.200638 6.897896
0.201693 6.891548
0.202748 6.884935
0.203803 6.878071
0.204858 6.870974
0.205912 6.863661
0.206967 6.856152
0.208022 6.848466
0.209077 6.840623
0.210132 6.832647
0.211187 6.824559
0.212242 6.816383
0.213296 6.808145
0.214351 6.799868
0.215406 6.791581
0.216461 6.783312
0.217516 6.775089
0.218571 6.766942
0.219626 6.758902
0.220681 6.751002
0.221735 6.743275
0.222790 6.735754
0.223845 6.728474
0.224900 6.721472
0.225955 6.714784
0.227010 6.708447
0.228064 6.702497
0.229119 6.696974
0.230174 6.691913
0.231229 6.687351
0.232284 6.683326
0.233339 6.679870
0.234394 6.677018
0.235448 6.674801
0.236503 6.673246
0.237558 6.672378
0.238613 6.672219
0.239668 6.672786
0.240723 6.674090
0.241778 6.676140
0.242832 6.678936
0.243887 6.682476
0.244942 6.686748
0.245997 6.691737
0.247052 6.697423
0.248107 6.703778
0.249162 6.710771
0.250216 6.718364
0.251271 6.726519
0.252326 6.735190
0.253381 6.744330
0.254436 6.753889
0.255491 6.763817
0.256545 6.774061
0.257600 6.784566
0.258655 6.795280
0.259710 6.806148
0.260765 6.817118
0.261820 6.828138
0.262875 6.839157
0.263929 6.850124
0.264984 6.860992
0.266039 6.871715
0.267094 6.882247
0.268149 6.892546
0.269204 6.902570
0.270259 6.912281
0.271313 6.921641
0.272368 6.930616
0.273423 6.939172
0.274478 6.947279
0.275533 6.954908
0.276588 6.962030
0.277643 6.968622
0.278697 6.974661
0.279752 6.980124
0.280807 6.984994
0.281862 6.989253
0.282917 6.992885
0.283972 6.995878
0.285027 6.998220
0.286081 6.999902
0.287136 7.000915
0.288191 7.001253

0.288191 7.001253
0.290301 6.999893
0.292410 6.995807
0.294520 6.989008
0.296630 6.979534
0.298739 6.967446
0.300849 6.952823
0.302959 6.935766
0.305069 6.916391
0.307178 6.894831
0.309288 6.871231
0.311398 6.845750
0.313507 6.818556
0.315617 6.789832
0.317727 6.759767
0.319837 6.728563
0.321946 6.696430
0.324056 6.663589
0.326166 6.630269
0.328275 6.596706
0.330385 6.563142
0.332495 6.529818
0.334605 6.496969
0.336714 6.464815
0.338824 6.433553
0.340934 6.403338
0.343043 6.374277
0.345153 6.346419
0.347263 6.319741
0.349372 6.294153
0.351482 6.269501
0.353592 6.245573
0.355702 6.222114
0.357811 6.198841
0.359921 6.175455
0.362031 6.151651
0.364140 6.127135
0.366250 6.101622
0.368360 6.074848
0.370470 6.046568
0.372579 6.016560
0.374689 5.984625
0.376799 5.950587
0.378908 5.914291
0.381018 5.875603
0.383128 5.834408
0.385237 5.790611
0.387347 5.744134
0.389457 5.694912
0.391566 5.642899
0.393676 5.588058
0.395786 5.530368
0.397896 5.469816
0.400005 5.406401
0.402115 5.340128
0.404225 5.271013
0.406334 5.199076
0.408444 5.124343
0.410554 5.046848
0.412664 4.966625
0.414773 4.883714
0.416883 4.798159
0.418993 4.710003
0.421102 4.619295
0.423212 4.526084
0.425322 4.430420
0.427432 4.332356
0.429541 4.231943
0.431651 4.129236
0.433761 4.024291
0.435870 3.917161
0.437980 3.807904
0.440090 3.696577
0.442200 3.583237
0.444309 3.467943
0.446419 3.350755
0.448529 3.231732
0.450638 3.110936
0.452748 2.988430
0.454858 2.864276
0.456967 2.738538
0.459077 2.611283
0.461187 2.482576
0.463296 2.352485
0.465406 2.221078
0.467516 2.088427
0.469626 1.954601
0.471735 1.819672
0.473845 1.683716
0.475955 1.546805
0.478064 1.409015
0.480174 1.270422
0.482284 1.131105
0.484393 0.991141
0.486503 0.850609
0.488613 0.709589
0.490723 0.568162
0.492832 0.426408
0.494942 0.284408
0.497052 0.142245
0.499161 -0.000000


0.000000 8.350683
0.001827 8.350903
0.003654 8.351564
0.005481 8.352663
0.007308 8.354198
0.009135 8.356167
0.010962 8.358564
0.012789 8.361385
0.014616 8.364625
0.016443 8.368276
0.018271 8.372330
0.020098 8.376780
0.021925 8.381616
0.023752 8.386829
0.025579 8.392408
0.027406 8.398343
0.029233 8.404621
0.031060 8.411230
0.032887 8.418158
0.034714 8.425392
0.036541 8.432919
0.038368 8.440724
0.040195 8.448794
0.042022 8.457114
0.043849 8.465671
0.045676 8.474449
0.047503 8.483434
0.049331 8.492611
0.051158 8.501966
0.052985 8.511485
0.054812 8.521152
0.056639 8.530953
0.058466 8.540875
0.060293 8.550904
0.062120 8.561025
0.063947 8.571226
0.065774 8.581494
0.067601 8.591815
0.069428 8.602177
0.071255 8.612569
0.073082 8.622979
0.074909 8.633395
0.076736 8.643807
0.078563 8.654204
0.080391 8.664577
0.082218 8.674915
0.084045 8.685210
0.085872 8.695452
0.087699 8.705633
0.089526 8.715746
0.091353 8.725782
0.093180 8.735734
0.095007 8.745595
0.096834 8.755359
0.098661 8.765019
0.100488 8.774568
0.102315 8.784002
0.104142 8.793315
0.105969 8.802501
0.107796 8.811554
0.109623 8.820471
0.111450 8.829246
0.113278 8.837875
0.115105 8.846352
0.116932 8.854674
0.118759 8.862835
0.120586 8.870832
0.122413 8.878661
0.124240 8.886317
0.126067 8.893795
0.127894 8.901092
0.129721 8.908204
0.131548 8.915126
0.133375 8.921854
0.135202 8.928384
0.137029 8.934712
0.138856 8.940833
0.140683 8.946744
0.142511 8.952441
0.144338 8.957919
0.146165 8.963175
0.147992 8.968204
0.149819 8.973003
0.151646 8.977567
0.153473 8.981893
0.155300 8.985978
0.157127 8.989817
0.158954 8.993407
0.160781 8.996746
0.162608 8.999830
0.164435 9.002656
0.166262 9.005221
0.168089 9.007523
0.169916 9.009560
0.171743 9.011330
0.173570 9.012830
0.175398 9.014060
0.177225 9.015018
0.179052 9.015703
0.180879 9.016114
0.182706 9.016251

0.182706 9.016251
0.183761 9.016465
0.184815 9.017105
0.185870 9.018171
0.186925 9.019662
0.187980 9.021577
0.189035 9.023912
0.190090 9.026667
0.191145 9.029837
0.192199 9.033419
0.193254 9.037410
0.194309 9.041806
0.195364 9.046600
0.196419 9.051789
0.197474 9.057367
0.198529 9.063328
0.199583 9.069664
0.200638 9.076371
0.201693 9.083440
0.202748 9.090863
0.203803 9.098634
0.204858 9.106743
0.205912 9.115181
0.206967 9.123940
0.208022 9.133010
0.209077 9.142380
0.210132 9.152041
0.211187 9.161982
0.212242 9.172192
0.213296 9.182658
0.214351 9.193369
0.215406 9.204311
0.216461 9.215473
0.217516 9.226839
0.218571 9.238396
0.219626 9.250128
0.220681 9.262019
0.221735 9.274051
0.222790 9.286208
0.223845 9.298469
0.224900 9.310813
0.225955 9.323219
0.227010 9.335660
0.228064 9.348109
0.229119 9.360536
0.230174 9.372907
0.231229 9.385184
0.232284 9.397322
0.233339 9.409271
0.234394 9.420973
0.235448 9.432362
0.236503 9.443362
0.237558 9.453885
0.238613 9.463835
0.239668 9.473104
0.240723 9.481585
0.241778 9.489167
0.242832 9.495756
0.243887 9.501281
0.244942 9.505705
0.245997 9.509028
0.247052 9.511296
0.248107 9.512581
0.249162 9.512983
0.250216 9.512609
0.251271 9.511569
0.252326 9.509966
0.253381 9.507893
0.254436 9.505434
0.255491 9.502661
0.256545 9.499636
0.257600 9.496412
0.258655 9.493035
0.259710 9.489543
0.260765 9.485971
0.261820 9.482349
0.262875 9.478702
0.263929 9.475054
0.264984 9.471425
0.266039 9.467835
0.267094 9.464300
0.268149 9.460837
0.269204 9.457459
0.270259 9.454181
0.271313 9.451014
0.272368 9.447972
0.273423 9.445064
0.274478 9.442303
0.275533 9.439698
0.276588 9.437258
0.277643 9.434993
