# distance  frequency (bands are separated by blank lines)
# End points of segments: 
#   0.00000000 0.16420660 0.25893050 0.44845900 
0.000000 -0.000000
0.001642 0.066652
0.003284 0.133076
0.004926 0.199489
0.006568 0.265832
0.008210 0.332070
0.009852 0.398173
0.011494 0.464115
0.013137 0.529868
0.014779 0.595404
0.016421 0.660697
0.018063 0.725720
0.019705 0.790447
0.021347 0.854851
0.022989 0.918907
0.024631 0.982589
0.026273 1.045870
0.027915 1.108725
0.029557 1.171129
0.031199 1.233056
0.032841 1.294481
0.034483 1.355379
0.036125 1.415723
0.037768 1.475489
0.039410 1.534650
0.041052 1.593181
0.042694 1.651056
0.044336 1.708249
0.045978 1.764731
0.047620 1.820477
0.049262 1.875458
0.050904 1.929646
0.052546 1.983011
0.054188 2.035525
0.055830 2.087155
0.057472 2.137872
0.059114 2.187641
0.060756 2.236431
0.062399 2.284208
0.064041 2.330935
0.065683 2.376577
0.067325 2.421097
0.068967 2.464458
0.070609 2.506621
0.072251 2.547547
0.073893 2.587197
0.075535 2.625530
0.077177 2.662509
0.078819 2.698093
0.080461 2.732243
0.082103 2.764924
0.083745 2.796099
0.085387 2.825735
0.087029 2.853802
0.088672 2.880272
0.090314 2.905124
0.091956 2.928339
0.093598 2.949906
0.095240 2.969818
0.096882 2.988079
0.098524 3.004695
0.100166 3.019684
0.101808 3.033071
0.103450 3.044890
0.105092 3.055182
0.106734 3.063995
0.108376 3.071388
0.110018 3.077425
0.111660 3.082174
0.113303 3.085712
0.114945 3.088119
0.116587 3.089477
0.118229 3.089873
0.119871 3.089392
0.121513 3.088123
0.123155 3.086152
0.124797 3.083567
0.126439 3.080450
0.128081 3.076883
0.129723 3.072946
0.131365 3.068714
0.133007 3.064259
0.134649 3.059649
0.136291 3.054949
0.137933 3.050218
0.139576 3.045512
0.141218 3.040883
0.142860 3.036380
0.144502 3.032045
0.146144 3.027919
0.147786 3.024037
0.149428 3.020431
0.151070 3.017132
0.152712 3.014163
0.154354 3.011547
0.155996 3.009302
0.157638 3.007444
0.159280 3.005986
0.160922 3.004938
0.162565 3.004306
0.164207 3.004095

0.164207 2.285440
0.165154 2.285603
0.166101 2.286092
0.167048 2.286902
0.167995 2.288031
0.168943 2.289471
0.169890 2.291213
0.170837 2.293247
0.171785 2.295561
0.172732 2.298139
0.173679 2.300966
0.174626 2.304023
0.175573 2.307288
0.176521 2.310740
0.177468 2.314353
0.178415 2.318099
0.179362 2.321950
0.180310 2.325873
0.181257 2.329834
0.182204 2.333798
0.183151 2.337724
0.184099 2.341572
0.185046 2.345300
0.185993 2.348863
0.186940 2.352215
0.187888 2.355308
0.188835 2.358094
0.189782 2.360526
0.190729 2.362554
0.191676 2.364134
0.192624 2.365221
0.193571 2.365773
0.194518 2.365753
0.195465 2.365128
0.196413 2.363871
0.197360 2.361960
0.198307 2.359380
0.199254 2.356123
0.200202 2.352187
0.201149 2.347576
0.202096 2.342301
0.203043 2.336379
0.203991 2.329830
0.204938 2.322678
0.205885 2.314953
0.206832 2.306685
0.207780 2.297907
0.208727 2.288652
0.209674 2.278957
0.210621 2.268856
0.211568 2.258385
0.212516 2.247578
0.213463 2.236470
0.214410 2.225096
0.215358 2.213487
0.216305 2.201677
0.217252 2.189696
0.218199 2.177574
0.219146 2.165342
0.220094 2.153027
0.221041 2.140657
0.221988 2.128259
0.222935 2.115858
0.223883 2.103480
0.224830 2.091148
0.225777 2.078886
0.226724 2.066716
0.227672 2.054661
0.228619 2.042741
0.229566 2.030978
0.230513 2.019391
0.231461 2.008000
0.232408 1.996823
0.233355 1.985878
0.234302 1.975182
0.235250 1.964753
0.236197 1.954606
0.237144 1.944758
0.238091 1.935222
0.239038 1.926013
0.239986 1.917145
0.240933 1.908631
0.241880 1.900482
0.242827 1.892711
0.243775 1.885328
0.244722 1.878344
0.245669 1.871769
0.246616 1.865610
0.247564 1.859876
0.248511 1.854574
0.249458 1.849712
0.250405 1.845294
0.251352 1.841327
0.252300 1.837814
0.253247 1.834760
0.254194 1.832167
0.255142 1.830038
0.256089 1.828374
0.257036 1.827176
0.257983 1.826444
0.258931 1.826178

0.258931 1.826178
0.260826 1.827258
0.262721 1.830353
0.264616 1.835435
0.266512 1.842460
0.268407 1.851375
0.270302 1.862115
0.272197 1.874605
0.274093 1.888763
0.275988 1.904501
0.277883 1.921724
0.279779 1.940336
0.281674 1.960234
0.283569 1.981316
0.285465 2.003479
0.287360 2.026617
0.289255 2.050625
0.291150 2.075400
0.293046 2.100837
0.294941 2.126831
0.296836 2.153278
0.298731 2.180072
0.300627 2.207106
0.302522 2.234271
0.304417 2.261454
0.306313 2.288534
0.308208 2.315387
0.310103 2.341875
0.311999 2.367846
0.313894 2.393126
0.315789 2.417514
0.317684 2.440762
0.319580 2.462556
0.321475 2.482483
0.323370 2.499973
0.325265 2.514229
0.327161 2.524161
0.329056 2.528438
0.330951 2.525855
0.332847 2.515999
0.334742 2.499590
0.336637 2.478042
0.338533 2.452768
0.340428 2.424851
0.342323 2.395031
0.344218 2.363796
0.346114 2.331465
0.348009 2.298255
0.349904 2.264314
0.351799 2.229745
0.353695 2.194625
0.355590 2.159010
0.357485 2.122941
0.359381 2.086452
0.361276 2.049566
0.363171 2.012304
0.365067 1.974681
0.366962 1.936709
0.368857 1.898395
0.370752 1.859748
0.372648 1.820771
0.374543 1.781468
0.376438 1.741840
0.378333 1.701888
0.380229 1.661610
0.382124 1.621005
0.384019 1.580072
0.385915 1.538806
0.387810 1.497205
0.389705 1.455267
0.391601 1.412986
0.393496 1.370361
0.395391 1.327389
0.397286 1.284066
0.399182 1.240391
0.401077 1.196362
0.402972 1.151980
0.404867 1.107244
0.406763 1.062157
0.408658 1.016720
0.410553 0.970938
0.412449 0.924816
0.414344 0.878360
0.416239 0.831578
0.418135 0.784480
0.420030 0.737075
0.421925 0.689375
0.423820 0.641394
0.425716 0.593146
0.427611 0.544647
0.429506 0.495913
0.431401 0.446962
0.433297 0.397813
0.435192 0.348485
0.437087 0.299000
0.438983 0.249377
0.440878 0.199640
0.442773 0.149810
0.444669 0.099910
0.446564 0.049960
0.448459 0.000000


0.000000 -0.000000
0.001642 0.011922
0.003284 0.024042
0.004926 0.036549
0.006568 0.049619
0.008210 0.063410
0.009852 0.078055
0.011494 0.093666
0.013137 0.110329
0.014779 0.128110
0.016421 0.147054
0.018063 0.167188
0.019705 0.188525
0.021347 0.211065
0.022989 0.234797
0.024631 0.259703
0.026273 0.285759
0.027915 0.312932
0.029557 0.341191
0.031199 0.370497
0.032841 0.400811
0.034483 0.432095
0.036125 0.464308
0.037768 0.497408
0.039410 0.531355
0.041052 0.566109
0.042694 0.601631
0.044336 0.637881
0.045978 0.674821
0.047620 0.712415
0.049262 0.750627
0.050904 0.789420
0.052546 0.828762
0.054188 0.868619
0.055830 0.908957
0.057472 0.949747
0.059114 0.990955
0.060756 1.032553
0.062399 1.074510
0.064041 1.116796
0.065683 1.159383
0.067325 1.202242
0.068967 1.245345
0.070609 1.288664
0.072251 1.332171
0.073893 1.375837
0.075535 1.419636
0.077177 1.463539
0.078819 1.507519
0.080461 1.551548
0.082103 1.595599
0.083745 1.639643
0.085387 1.683653
0.087029 1.727600
0.088672 1.771456
0.090314 1.815193
0.091956 1.858783
0.093598 1.902196
0.095240 1.945404
0.096882 1.988378
0.098524 2.031089
0.100166 2.073507
0.101808 2.115602
0.103450 2.157345
0.105092 2.198705
0.106734 2.239651
0.108376 2.280152
0.110018 2.320177
0.111660 2.359694
0.113303 2.398670
0.114945 2.437072
0.116587 2.474866
0.118229 2.512017
0.119871 2.548490
0.121513 2.584247
0.123155 2.619252
0.124797 2.653464
0.126439 2.686845
0.128081 2.719352
0.129723 2.750942
0.131365 2.781571
0.133007 2.811192
0.134649 2.839758
0.136291 2.867219
0.137933 2.893524
0.139576 2.918621
0.141218 2.942455
0.142860 2.964974
0.144502 2.986120
0.146144 3.005839
0.147786 3.024075
0.149428 3.040774
0.151070 3.055882
0.152712 3.069350
0.154354 3.081129
0.155996 3.091177
0.157638 3.099453
0.159280 3.105927
0.160922 3.110570
0.162565 3.113364
0.164207 3.114296

0.164207 3.004095
0.165154 3.003962
0.166101 3.003563
0.167048 3.002900
0.167995 3.001976
0.168943 3.000797
0.169890 2.999370
0.170837 2.997701
0.171785 2.995801
0.172732 2.993680
0.173679 2.991352
0.174626 2.988831
0.175573 2.986133
0.176521 2.983276
0.177468 2.980281
0.178415 2.977169
0.179362 2.973966
0.180310 2.970697
0.181257 2.967391
0.182204 2.964079
0.183151 2.960795
0.184099 2.957572
0.185046 2.954450
0.185993 2.951468
0.186940 2.948666
0.187888 2.946087
0.188835 2.943774
0.189782 2.941772
0.190729 2.940123
0.191676 2.938870
0.192624 2.938055
0.193571 2.937715
0.194518 2.937885
0.195465 2.938596
0.196413 2.939874
0.197360 2.941737
0.198307 2.944200
0.199254 2.947271
0.200202 2.950952
0.201149 2.955237
0.202096 2.960118
0.203043 2.965578
0.203991 2.971599
0.204938 2.978158
0.205885 2.985228
0.206832 2.992782
0.207780 3.000789
0.208727 3.009219
0.209674 3.018041
0.210621 3.027223
0.211568 3.036734
0.212516 3.046544
0.213463 3.056623
0.214410 3.066942
0.215358 3.077473
0.216305 3.088190
0.217252 3.099066
0.218199 3.110077
0.219146 3.121198
0.220094 3.132408
0.221041 3.143683
0.221988 3.155002
0.222935 3.166346
0.223883 3.177694
0.224830 3.189026
0.225777 3.200325
0.226724 3.211572
0.227672 3.222748
0.228619 3.233837
0.229566 3.244822
0.230513 3.255684
0.231461 3.266408
0.232408 3.276976
0.233355 3.287373
0.234302 3.297582
0.235250 3.307585
0.236197 3.317368
0.237144 3.326913
0.238091 3.336205
0.239038 3.345226
0.239986 3.353962
0.240933 3.362395
0.241880 3.370511
0.242827 3.378292
0.243775 3.385724
0.244722 3.392792
0.245669 3.399480
0.246616 3.405773
0.247564 3.411659
0.248511 3.417122
0.249458 3.422151
0.250405 3.426734
0.251352 3.430859
0.252300 3.434516
0.253247 3.437697
0.254194 3.440392
0.255142 3.442595
0.256089 3.444302
0.257036 3.445506
0.257983 3.446206
0.258931 3.446400

0.258931 3.129864
0.260826 3.129448
0.262721 3.128199
0.264616 3.126061
0.266512 3.122983
0.268407 3.118920
0.270302 3.113830
0.272197 3.107679
0.274093 3.100439
0.275988 3.092085
0.277883 3.082599
0.279779 3.071968
0.281674 3.060183
0.283569 3.047241
0.285465 3.033138
0.287360 3.017879
0.289255 3.001467
0.291150 2.983909
0.293046 2.965215
0.294941 2.945395
0.296836 2.924461
0.298731 2.902425
0.300627 2.879301
0.302522 2.855102
0.304417 2.829845
0.306313 2.803545
0.308208 2.776218
0.310103 2.747880
0.311999 2.718549
0.313894 2.688242
0.315789 2.656980
0.317684 2.624779
0.319580 2.591662
0.321475 2.557648
0.323370 2.522759
0.325265 2.487017
0.327161 2.450447
0.329056 2.413070
0.330951 2.374913
0.332847 2.336001
0.334742 2.296360
0.336637 2.256017
0.338533 2.214999
0.340428 2.173336
0.342323 2.131056
0.344218 2.088187
0.346114 2.044762
0.348009 2.000809
0.349904 1.956359
0.351799 1.911445
0.353695 1.866097
0.355590 1.820349
0.357485 1.774231
0.359381 1.727778
0.361276 1.681022
0.363171 1.633998
0.365067 1.586739
0.366962 1.539279
0.368857 1.491655
0.370752 1.443901
0.372648 1.396055
0.374543 1.348154
0.376438 1.300235
0.378333 1.252338
0.380229 1.204503
0.382124 1.156772
0.384019 1.109188
0.385915 1.061795
0.387810 1.014640
0.389705 0.967771
0.391601 0.921237
0.393496 0.875092
0.395391 0.829391
0.397286 0.784190
0.399182 0.739550
0.401077 0.695534
0.402972 0.652207
0.404867 0.609639
0.406763 0.567901
0.408658 0.527067
0.410553 0.487215
0.412449 0.448426
0.414344 0.410782
0.416239 0.374367
0.418135 0.339266
0.420030 0.305567
0.421925 0.273354
0.423820 0.242711
0.425716 0.213718
0.427611 0.186448
0.429506 0.160966
0.431401 0.137323
0.433297 0.115553
0.435192 0.095662
0.437087 0.077625
0.438983 0.061373
0.440878 0.046778
0.442773 0.033650
0.444669 0.021717
0.446564 0.010637
0.448459 -0.000000


0.000000 0.000000
0.001642 0.043781
0.003284 0.087829
0.004926 0.131734
0.006568 0.175509
0.008210 0.219128
0.009852 0.262557
0.011494 0.305764
0.013137 0.348715
0.014779 0.391379
0.016421 0.433725
0.018063 0.475723
0.019705 0.517348
0.021347 0.558572
0.022989 0.599373
0.024631 0.639729
0.026273 0.679622
0.027915 0.719034
0.029557 0.757949
0.031199 0.796356
0.032841 0.834244
0.034483 0.871604
0.036125 0.908430
0.037768 0.944717
0.039410 0.980464
0.041052 1.015669
0.042694 1.050333
0.044336 1.084459
0.045978 1.118051
0.047620 1.151114
0.049262 1.183653
0.050904 1.215676
0.052546 1.247191
0.054188 1.278205
0.055830 1.308727
0.057472 1.338765
0.059114 1.368328
0.060756 1.397425
0.062399 1.426063
0.064041 1.454249
0.065683 1.481991
0.067325 1.509295
0.068967 1.536165
0.070609 1.562606
0.072251 1.588622
0.073893 1.614214
0.075535 1.639384
0.077177 1.664131
0.078819 1.688456
0.080461 1.712354
0.082103 1.735824
0.083745 1.758861
0.085387 1.781461
0.087029 1.803618
0.088672 1.825325
0.090314 1.846575
0.091956 1.867360
0.093598 1.887674
0.095240 1.907508
0.096882 1.926854
0.098524 1.945703
0.100166 1.964049
0.101808 1.981883
0.103450 1.999199
0.105092 2.015989
0.106734 2.032248
0.108376 2.047971
0.110018 2.063154
0.111660 2.077792
0.113303 2.091885
0.114945 2.105429
0.116587 2.118426
0.118229 2.130876
0.119871 2.142781
0.121513 2.154144
0.123155 2.164968
0.124797 2.175260
0.126439 2.185025
0.128081 2.194270
0.129723 2.203003
0.131365 2.211232
0.133007 2.218968
0.134649 2.226219
0.136291 2.232996
0.137933 2.239309
0.139576 2.245170
0.141218 2.250589
0.142860 2.255577
0.144502 2.260145
0.146144 2.264304
0.147786 2.268063
0.149428 2.271432
0.151070 2.274420
0.152712 2.277036
0.154354 2.279286
0.155996 2.281179
0.157638 2.282720
0.159280 2.283913
0.160922 2.284762
0.162565 2.285271
0.164207 2.285440

0.164207 3.114296
0.165154 3.114228
0.166101 3.114022
0.167048 3.113680
0.167995 3.113204
0.168943 3.112598
0.169890 3.111864
0.170837 3.111008
0.171785 3.110033
0.172732 3.108947
0.173679 3.107755
0.174626 3.106463
0.175573 3.105080
0.176521 3.103612
0.177468 3.102068
0.178415 3.100455
0.179362 3.098783
0.180310 3.097059
0.181257 3.095291
0.182204 3.093490
0.183151 3.091662
0.184099 3.089816
0.185046 3.087961
0.185993 3.086105
0.186940 3.084255
0.187888 3.082420
0.188835 3.080607
0.189782 3.078824
0.190729 3.077076
0.191676 3.075372
0.192624 3.073717
0.193571 3.072118
0.194518 3.070580
0.195465 3.069108
0.196413 3.067709
0.197360 3.066387
0.198307 3.065145
0.199254 3.063990
0.200202 3.062923
0.201149 3.061950
0.202096 3.061072
0.203043 3.060293
0.203991 3.059616
0.204938 3.059042
0.205885 3.058574
0.206832 3.058212
0.207780 3.057959
0.208727 3.057816
0.209674 3.057782
0.210621 3.057859
0.211568 3.058045
0.212516 3.058342
0.213463 3.058749
0.214410 3.059264
0.215358 3.059886
0.216305 3.060615
0.217252 3.061448
0.218199 3.062383
0.219146 3.063419
0.220094 3.064552
0.221041 3.065779
0.221988 3.067098
0.222935 3.068505
0.223883 3.069997
0.224830 3.071569
0.225777 3.073218
0.226724 3.074938
0.227672 3.076725
0.228619 3.078575
0.229566 3.080482
0.230513 3.082440
0.231461 3.084443
0.232408 3.086487
0.233355 3.088564
0.234302 3.090668
0.235250 3.092793
0.236197 3.094932
0.237144 3.097077
0.238091 3.099221
0.239038 3.101358
0.239986 3.103478
0.240933 3.105575
0.241880 3.107641
0.242827 3.109667
0.243775 3.111646
0.244722 3.113568
0.245669 3.115426
0.246616 3.117211
0.247564 3.118915
0.248511 3.120528
0.249458 3.122042
0.250405 3.123449
0.251352 3.124740
0.252300 3.125906
0.253247 3.126938
0.254194 3.127829
0.255142 3.128569
0.256089 3.129151
0.257036 3.129566
0.257983 3.129806
0.258931 3.129864

0.258931 3.446400
0.260826 3.445594
0.262721 3.442958
0.264616 3.438520
0.266512 3.432326
0.268407 3.424436
0.270302 3.414923
0.272197 3.403867
0.274093 3.391354
0.275988 3.377475
0.277883 3.362319
0.279779 3.345976
0.281674 3.328530
0.283569 3.310063
0.285465 3.290653
0.287360 3.270371
0.289255 3.249283
0.291150 3.227450
0.293046 3.204929
0.294941 3.181772
0.296836 3.158027
0.298731 3.133737
0.300627 3.108947
0.302522 3.083697
0.304417 3.058028
0.306313 3.031984
0.308208 3.005611
0.310103 2.978962
0.311999 2.952101
0.313894 2.925108
0.315789 2.898091
0.317684 2.871195
0.319580 2.844628
0.321475 2.818694
0.323370 2.793851
0.325265 2.770780
0.327161 2.750451
0.329056 2.734075
0.330951 2.722737
0.332847 2.716730
0.334742 2.715214
0.336637 2.716661
0.338533 2.719549
0.340428 2.722692
0.342323 2.725254
0.344218 2.726664
0.346114 2.726526
0.348009 2.724562
0.349904 2.720576
0.351799 2.714425
0.353695 2.706010
0.355590 2.695264
0.357485 2.682145
0.359381 2.666633
0.361276 2.648723
0.363171 2.628426
0.365067 2.605764
0.366962 2.580766
0.368857 2.553471
0.370752 2.523923
0.372648 2.492169
0.374543 2.458260
0.376438 2.422248
0.378333 2.384186
0.380229 2.344129
0.382124 2.302131
0.384019 2.258244
0.385915 2.212521
0.387810 2.165014
0.389705 2.115775
0.391601 2.064853
0.393496 2.012297
0.395391 1.958156
0.397286 1.902479
0.399182 1.845312
0.401077 1.786703
0.402972 1.726699
0.404867 1.665348
0.406763 1.602696
0.408658 1.538791
0.410553 1.473682
0.412449 1.407417
0.414344 1.340046
0.416239 1.271618
0.418135 1.202185
0.420030 1.131799
0.421925 1.060513
0.423820 0.988381
0.425716 0.915458
0.427611 0.841800
0.429506 0.767464
0.431401 0.692508
0.433297 0.616991
0.435192 0.540973
0.437087 0.464515
0.438983 0.387678
0.440878 0.310525
0.442773 0.233117
0.444669 0.155519
0.446564 0.077796
0.448459 0.000000


0.000000 3.435828
0.001642 3.435954
0.003284 3.436322
0.004926 3.436926
0.006568 3.437768
0.008210 3.438849
0.009852 3.440169
0.011494 3.441728
0.013137 3.443525
0.014779 3.445560
0.016421 3.447831
0.018063 3.450339
0.019705 3.453081
0.021347 3.456056
0.022989 3.459261
0.024631 3.462694
0.026273 3.466353
0.027915 3.470233
0.029557 3.474331
0.031199 3.478643
0.032841 3.483163
0.034483 3.487886
0.036125 3.492805
0.037768 3.497915
0.039410 3.503208
0.041052 3.508675
0.042694 3.514310
0.044336 3.520102
0.045978 3.526042
0.047620 3.532120
0.049262 3.538327
0.050904 3.544652
0.052546 3.551083
0.054188 3.557610
0.055830 3.564221
0.057472 3.570905
0.059114 3.577649
0.060756 3.584444
0.062399 3.591277
0.064041 3.598137
0.065683 3.605013
0.067325 3.611894
0.068967 3.618770
0.070609 3.625631
0.072251 3.632467
0.073893 3.639268
0.075535 3.646028
0.077177 3.652736
0.078819 3.659387
0.080461 3.665973
0.082103 3.672488
0.083745 3.678926
0.085387 3.685283
0.087029 3.691553
0.088672 3.697734
0.090314 3.703822
0.091956 3.709814
0.093598 3.715708
0.095240 3.721503
0.096882 3.727196
0.098524 3.732788
0.100166 3.738278
0.101808 3.743664
0.103450 3.748947
0.105092 3.754127
0.106734 3.759203
0.108376 3.764176
0.110018 3.769046
0.111660 3.773812
0.113303 3.778475
0.114945 3.783033
0.116587 3.787487
0.118229 3.791835
0.119871 3.796075
0.121513 3.800207
0.123155 3.804229
0.124797 3.808139
0.126439 3.811933
0.128081 3.815610
0.129723 3.819165
0.131365 3.822596
0.133007 3.825899
0.134649 3.829070
0.136291 3.832105
0.137933 3.834999
0.139576 3.837747
0.141218 3.840346
0.142860 3.842791
0.144502 3.845077
0.146144 3.847200
0.147786 3.849155
0.149428 3.850938
0.151070 3.852544
0.152712 3.853972
0.154354 3.855216
0.155996 3.856274
0.157638 3.857144
0.159280 3.857822
0.160922 3.858308
0.162565 3.858601
0.164207 3.858698

0.164207 3.858698
0.165154 3.858880
0.166101 3.859426
0.167048 3.860334
0.167995 3.861601
0.168943 3.863225
0.169890 3.865201
0.170837 3.867523
0.171785 3.870186
0.172732 3.873182
0.173679 3.876504
0.174626 3.880143
0.175573 3.884091
0.176521 3.888338
0.177468 3.892875
0.178415 3.897690
0.179362 3.902773
0.180310 3.908114
0.181257 3.913700
0.182204 3.919521
0.183151 3.925565
0.184099 3.931820
0.185046 3.938275
0.185993 3.944918
0.186940 3.951737
0.187888 3.958721
0.188835 3.965857
0.189782 3.973135
0.190729 3.980542
0.191676 3.988068
0.192624 3.995702
0.193571 4.003431
0.194518 4.011246
0.195465 4.019135
0.196413 4.027087
0.197360 4.035093
0.198307 4.043140
0.199254 4.051219
0.200202 4.059319
0.201149 4.067431
0.202096 4.075542
0.203043 4.083645
0.203991 4.091727
0.204938 4.099779
0.205885 4.107790
0.206832 4.115750
0.207780 4.123647
0.208727 4.131472
0.209674 4.139212
0.210621 4.146855
0.211568 4.154390
0.212516 4.161803
0.213463 4.169080
0.214410 4.176207
0.215358 4.183166
0.216305 4.189942
0.217252 4.196514
0.218199 4.202860
0.219146 4.208958
0.220094 4.214780
0.221041 4.220299
0.221988 4.225483
0.222935 4.230299
0.223883 4.234713
0.224830 4.238694
0.225777 4.242211
0.226724 4.245242
0.227672 4.247774
0.228619 4.249806
0.229566 4.251349
0.230513 4.252427
0.231461 4.253078
0.232408 4.253342
0.233355 4.253268
0.234302 4.252902
0.235250 4.252290
0.236197 4.251476
0.237144 4.250498
0.238091 4.249390
0.239038 4.248184
0.239986 4.246906
0.240933 4.245579
0.241880 4.244224
0.242827 4.242858
0.243775 4.241498
0.244722 4.240156
0.245669 4.238846
0.246616 4.237579
0.247564 4.236363
0.248511 4.235208
0.249458 4.234123
0.250405 4.233112
